2018 4.1
2018 4.5
2018 4.3
2018 4.4
2018 4.3
2018 5.3
2018 3.9
2018 3.8
2018 4.0
2018 4.7
2018 4.4
2018 4.8
2018 4.4
2018 4.1
2018 4.6
2018 4.0
2018 4.4
2018 4.5
2017 4.6
2017 5.0
2017 4.2
2017 4.9
2017 4.6
2017 4.1
2017 4.6
2017 4.5
2017 4.3
2017 4.9
2017 4.4
2017 4.2
2017 4.3
2017 4.3
2017 4.5
2017 4.5
2017 3.9
2017 4.6
2017 4.7
2017 4.4
2016 5.2
2016 5.4
2016 4.6
2016 4.4
2016 4.0
2016 4.2
2016 4.4
2016 4.6
2016 4.7
2016 3.5
2016 4.1
2016 4.6
2016 4.0
2016 4.3
2016 4.2
2016 4.3
2016 4.0
2016 5.1
2016 5.4
2016 4.0
2016 4.5
2016 4.0
2016 4.3
2016 4.4
2016 4.0
2016 4.5
2016 4.5
2016 4.2
2016 4.1
2016 4.1
2016 4.3
2016 4.1
2016 4.3
2016 4.1
2016 5.0
2016 4.2
2016 4.1
2016 4.0
2016 4.3
2016 4.4
2016 3.9
2016 4.7
2016 5.0
2016 3.7
2016 4.1
2016 5.2
2016 4.1
2016 4.2
2016 4.1
2016 4.2
2016 4.5
2016 4.1
2016 4.4
2015 4.1
2015 4.0
2015 5.4
2015 4.7
2015 4.6
2015 5.0
2015 4.5
2015 4.3
2015 4.9
2015 4.0
2015 4.2
2015 4.3
2015 4.0
2015 4.3
2015 4.5
2015 4.4
2015 4.6
2015 4.4
2015 4.4
2015 4.2
2015 4.0
2015 4.1
2015 3.6
2015 4.5
2015 3.5
2015 3.6
2015 4.2
2015 3.5
2015 3.9
2015 4.0
2015 5.0
2015 3.7
2015 3.3
2015 3.7
2015 3.9
2015 3.6
2015 3.8
2015 3.8
2015 4.2
2015 3.5
2015 4.7
2015 4.4
2015 3.7
2015 4.6
2015 3.7
2015 4.2
2015 3.6
2015 3.6
2015 3.6
2015 3.6
2015 4.4
2015 4.0
2015 3.9
2015 4.1
2015 3.8
2015 4.4
2015 3.5
2015 3.4
2015 3.6
2015 4.0
2015 3.8
2015 3.5
2015 3.3
2015 3.9
2015 3.6
2015 3.6
2015 3.6
2015 3.7
2015 3.8
2015 4.2
2015 4.3
2015 3.9
2015 3.8
2015 3.8
2015 4.2
2015 4.2
2015 3.8
2015 3.9
2015 3.6
2015 3.7
2015 4.5
2015 3.0
2015 4.2
2015 3.7
2015 3.9
2015 3.8
2015 4.5
2015 3.4
2015 4.0
2015 4.3
2015 3.6
2015 4.0
2015 4.7
2015 3.7
2015 5.3
2015 3.5
2015 3.7
2015 3.7
2015 4.3
2015 4.1
2015 3.6
2015 4.7
2015 3.7
2015 3.6
2015 3.7
2015 4.3
2015 4.3
2015 4.0
2015 3.3
2015 3.6
2015 4.1
2015 4.8
2015 4.0
2015 4.4
2015 4.8
2015 4.2
2015 3.4
2015 3.7
2015 3.8
2015 3.7
2015 3.7
2015 4.2
2015 3.7
2015 3.8
2015 3.5
2015 4.0
2015 3.3
2015 3.7
2015 3.9
2015 3.8
2015 3.3
2015 3.6
2015 4.3
2015 3.6
2015 3.5
2015 3.8
2015 3.4
2015 4.8
2015 3.7
2015 3.9
2015 3.7
2015 3.6
2015 4.0
2015 3.6
2015 3.4
2015 4.1
2015 4.4
2015 4.4
2015 3.8
2015 4.6
2015 3.7
2015 3.5
2015 3.6
2015 3.7
2015 3.3
2015 3.5
2015 3.3
2015 4.3
2015 3.5
2015 4.4
2015 3.4
2015 3.3
2015 3.9
2015 3.3
2015 3.9
2015 4.3
2015 4.1
2015 4.3
2015 4.7
2015 3.5
2015 3.3
2015 3.6
2015 3.7
2015 4.0
2015 3.5
2015 4.0
2015 4.6
2015 3.3
2015 4.2
2015 3.5
2015 4.4
2015 4.1
2015 3.7
2015 3.7
2015 3.5
2015 3.5
2015 3.8
2015 3.8
2015 4.3
2015 3.8
2015 3.7
2015 4.4
2015 4.1
2015 3.7
2015 3.8
2015 3.4
2015 3.9
2015 3.9
2015 3.9
2015 5.3
2015 3.6
2015 3.5
2015 4.2
2015 4.7
2015 4.1
2015 3.8
2015 3.7
2015 3.6
2015 3.7
2015 3.6
2015 4.9
2015 3.5
2015 3.6
2015 3.7
2015 3.7
2015 3.6
2015 3.5
2015 3.5
2015 3.9
2015 4.0
2015 3.7
2015 4.4
2015 4.4
2015 3.6
2015 5.0
2015 3.9
2015 3.6
2015 3.9
2015 3.7
2015 3.6
2015 3.9
2015 4.2
2015 4.2
2015 3.9
2015 4.8
2015 3.8
2015 4.5
2015 4.7
2015 3.5
2015 4.0
2015 3.9
2015 4.1
2015 4.1
2015 3.6
2015 3.6
2015 3.7
2015 4.0
2015 5.2
2015 3.4
2015 4.0
2015 4.3
2015 3.6
2015 4.5
2015 4.3
2015 3.4
2015 4.1
2015 4.0
2015 4.8
2015 4.4
2015 3.1
2015 4.0
2015 4.0
2015 4.4
2015 4.2
2015 4.4
2015 3.3
2015 4.5
2015 3.6
2015 4.4
2015 4.4
2015 4.2
2015 3.7
2015 4.1
2015 4.4
2015 4.0
2015 4.5
2015 3.6
2015 4.3
2015 3.9
2015 3.2
2015 4.4
2015 3.7
2015 4.1
2015 4.2
2015 4.0
2015 3.4
2015 3.5
2015 4.0
2015 4.5
2015 4.6
2015 4.5
2015 4.4
2015 3.8
2015 4.3
2015 4.2
2015 3.6
2015 3.5
2015 3.6
2015 4.2
2015 3.7
2015 4.5
2015 3.6
2015 3.7
2015 3.5
2015 3.7
2015 3.7
2015 3.7
2015 4.6
2015 4.5
2015 3.7
2015 4.0
2015 4.3
2015 3.8
2015 3.9
2015 3.9
2015 4.0
2015 4.4
2015 4.3
2015 4.5
2015 4.8
2015 5.2
2015 3.7
2015 5.1
2015 4.3
2015 5.0
2015 4.2
2015 3.6
2015 3.6
2015 4.5
2015 4.2
2015 4.9
2015 4.4
2015 4.9
2015 4.9
2015 6.1
2015 5.4
2015 4.1
2015 3.8
2015 3.9
2015 5.0
2015 4.8
2015 4.8
2015 4.9
2015 5.5
2015 4.4
2015 4.9
2015 7.2
2015 3.4
2015 3.7
2015 3.6
2015 3.7
2015 3.6
2015 4.3
2015 4.3
2015 3.5
2015 3.7
2015 4.0
2015 3.6
2015 3.6
2015 3.5
2015 3.3
2015 3.7
2015 4.3
2015 3.7
2015 3.8
2015 3.6
2015 3.5
2015 4.0
2015 3.7
2015 3.6
2015 3.6
2015 4.0
2015 3.8
2015 3.8
2015 3.5
2015 4.2
2015 3.9
2015 3.6
2015 4.9
2015 3.5
2015 4.0
2015 3.4
2015 3.4
2015 4.0
2015 3.5
2015 3.2
2015 3.8
2015 3.7
2015 3.7
2015 3.5
2015 3.3
2015 3.6
2015 3.8
2015 4.1
2015 4.1
2015 3.7
2015 3.6
2015 4.2
2015 3.8
2015 4.1
2015 3.8
2015 3.7
2015 4.0
2015 3.5
2015 3.6
2015 4.5
2015 4.5
2015 4.2
2015 3.7
2015 3.5
2015 3.3
2015 3.6
2015 3.6
2015 3.6
2015 4.3
2015 3.6
2015 3.6
2015 4.0
2015 4.0
2015 3.5
2015 3.6
2015 3.6
2015 4.3
2015 3.6
2015 3.3
2015 4.3
2015 3.8
2015 3.2
2015 3.7
2015 4.2
2015 3.6
2015 4.9
2015 3.9
2015 4.0
2015 3.7
2015 4.0
2015 4.0
2015 4.0
2015 4.1
2015 3.6
2015 4.0
2015 3.6
2015 3.5
2015 3.9
2015 3.7
2015 3.6
2015 3.9
2015 3.8
2015 3.6
2015 4.0
2015 3.4
2015 3.3
2015 3.8
2015 3.2
2015 3.3
2015 3.5
2015 3.8
2015 3.4
2015 3.4
2015 3.7
2015 3.6
2015 3.6
2015 3.5
2015 3.8
2015 3.7
2015 4.3
2015 3.7
2015 3.6
2015 4.5
2015 3.5
2015 3.4
2015 4.4
2015 4.1
2015 3.5
2015 3.5
2015 4.0
2015 3.5
2015 3.5
2015 4.6
2015 4.2
2015 3.8
2015 3.7
2015 3.9
2015 3.7
2015 3.6
2015 3.4
2015 3.7
2015 3.8
2015 3.7
2015 3.8
2015 3.9
2015 3.6
2015 4.1
2015 3.2
2015 4.0
2015 3.7
2015 3.1
2015 3.5
2015 3.5
2015 3.7
2015 3.9
2015 3.3
2015 3.4
2015 3.6
2015 3.7
2015 3.6
2015 3.8
2015 3.9
2015 3.4
2015 3.8
2015 3.7
2015 3.7
2015 3.8
2015 3.9
2015 4.2
2015 3.5
2015 3.6
2015 3.8
2015 3.6
2015 3.6
2015 3.6
2015 4.2
2015 3.7
2015 3.3
2015 3.3
2015 3.7
2015 4.8
2015 3.5
2015 3.7
2015 3.8
2015 3.8
2015 3.5
2015 3.8
2015 3.2
2015 4.3
2015 4.0
2015 4.0
2015 4.3
2015 3.5
2015 3.4
2015 4.3
2015 3.6
2015 5.0
2015 3.6
2015 3.6
2015 3.8
2015 3.7
2015 3.9
2015 3.7
2015 4.0
2015 3.7
2015 3.6
2015 3.6
2015 4.1
2015 3.6
2015 3.5
2015 3.4
2015 3.5
2015 3.8
2015 3.7
2015 4.3
2015 3.5
2015 4.1
2015 3.7
2015 3.8
2015 3.9
2015 3.9
2015 4.6
2015 3.9
2015 3.7
2015 3.7
2015 3.6
2015 4.3
2015 3.9
2015 3.6
2015 3.8
2015 3.5
2015 3.6
2015 4.4
2015 4.2
2015 3.8
2015 3.4
2015 3.7
2015 5.2
2015 3.6
2015 3.8
2015 4.3
2015 4.5
2015 3.6
2015 3.6
2015 3.6
2015 4.5
2015 3.6
2015 4.0
2015 3.6
2015 3.9
2015 4.1
2015 4.0
2015 4.3
2015 3.7
2015 3.8
2015 3.9
2015 3.8
2015 3.7
2015 3.8
2015 4.4
2015 4.6
2015 3.7
2015 3.9
2015 3.8
2015 4.4
2015 3.6
2015 3.4
2015 4.3
2015 3.5
2015 3.8
2015 3.6
2015 4.2
2015 4.3
2015 4.7
2015 4.0
2015 4.9
2015 3.8
2015 5.1
2015 5.0
2015 6.7
2015 3.5
2015 3.9
2015 3.9
2015 3.7
2015 3.7
2015 4.0
2015 4.1
2015 4.0
2015 4.3
2015 3.6
2015 3.6
2015 3.6
2015 4.5
2015 3.7
2015 4.1
2015 3.7
2015 3.7
2015 4.2
2015 3.4
2015 4.0
2015 4.0
2015 3.8
2015 4.0
2015 3.4
2015 3.8
2015 4.1
2015 3.5
2015 4.5
2015 3.7
2015 3.6
2015 4.7
2015 5.2
2015 3.7
2015 4.0
2015 3.6
2015 3.7
2015 3.9
2015 3.5
2015 3.5
2015 3.8
2015 4.6
2015 3.9
2015 3.7
2015 4.4
2015 3.9
2015 3.7
2015 4.4
2015 3.9
2015 3.7
2015 3.7
2015 3.4
2015 3.3
2015 3.4
2015 3.4
2015 4.2
2015 3.7
2015 3.2
2015 3.7
2015 3.6
2015 3.5
2015 3.7
2015 3.7
2015 4.5
2015 5.3
2015 3.6
2015 3.2
2015 3.6
2015 3.4
2015 3.1
2015 3.6
2015 4.9
2015 3.8
2015 3.7
2015 3.7
2015 3.9
2015 3.7
2015 3.5
2015 3.9
2015 3.9
2015 3.5
2015 3.7
2015 3.9
2015 3.6
2015 3.9
2015 3.8
2015 3.7
2015 3.6
2015 3.4
2015 4.6
2015 3.6
2015 3.5
2015 3.6
2015 4.2
2015 3.7
2015 3.7
2015 4.7
2015 3.8
2015 4.6
2015 4.3
2015 3.8
2015 3.4
2015 3.3
2015 3.1
2015 3.8
2015 3.6
2015 4.7
2015 5.2
2015 3.4
2015 4.0
2015 3.4
2015 4.6
2015 4.2
2015 4.5
2015 3.8
2015 4.3
2015 4.2
2015 3.4
2015 4.1
2015 4.2
2015 3.6
2015 4.5
2015 4.4
2015 4.2
2015 4.0
2015 3.3
2015 4.2
2015 3.8
2015 3.6
2015 4.6
2015 3.7
2015 4.0
2015 4.2
2015 3.7
2015 3.7
2015 4.8
2015 4.1
2015 3.8
2015 3.6
2015 4.4
2015 3.6
2015 4.2
2015 3.5
2015 3.5
2015 3.7
2015 4.0
2015 4.4
2015 4.0
2015 3.7
2015 4.6
2015 4.3
2015 4.9
2015 4.4
2015 4.7
2015 5.0
2015 5.7
2015 3.8
2015 3.7
2015 4.8
2015 4.4
2015 5.3
2015 3.7
2015 4.4
2015 3.5
2015 4.0
2015 3.9
2015 4.2
2015 4.6
2015 5.0
2015 4.6
2015 4.9
2015 4.7
2015 4.8
2015 4.9
2015 3.9
2015 4.6
2015 4.4
2015 4.4
2015 5.0
2015 3.8
2015 3.8
2015 4.4
2015 4.5
2015 3.6
2015 3.7
2015 3.9
2015 3.8
2015 4.3
2015 4.3
2015 3.7
2015 4.0
2015 3.8
2015 3.7
2015 4.4
2015 4.2
2015 3.8
2015 3.5
2015 4.0
2015 4.7
2015 3.9
2015 4.8
2015 4.9
2015 4.3
2015 4.2
2015 4.4
2015 4.0
2015 4.4
2015 4.0
2015 5.1
2015 5.5
2015 4.3
2015 5.0
2015 6.7
2015 4.6
2015 4.3
2015 4.9
2015 5.1
2015 4.0
2015 4.0
2015 4.6
2015 4.2
2015 4.4
2015 3.9
2015 4.0
2015 4.7
2015 4.8
2015 4.5
2015 4.5
2015 5.0
2015 4.6
2015 4.8
2015 4.8
2015 5.0
2015 4.9
2015 5.1
2015 5.4
2015 4.9
2015 5.6
2015 5.3
2015 6.1
2015 5.8
2015 7.9
2015 3.7
2015 3.3
2015 4.4
2015 3.8
2015 5.0
2015 3.4
2015 3.9
2015 4.6
2015 4.3
2015 3.7
2015 3.5
2015 3.4
2015 3.6
2015 3.7
2015 3.5
2015 3.5
2015 3.1
2015 3.5
2015 3.4
2015 3.6
2015 4.8
2015 3.3
2015 3.4
2015 3.5
2015 3.5
2015 4.0
2015 3.4
2015 3.9
2015 3.5
2015 4.2
2014 4.0
2014 3.7
2014 4.9
2014 3.4
2014 3.2
2014 5.0
2014 3.5
2014 3.2
2014 3.9
2014 3.6
2014 3.5
2014 3.0
2014 3.6
2014 4.4
2014 3.7
2014 4.2
2014 3.4
2014 3.7
2014 3.5
2014 4.3
2014 3.4
2014 4.0
2014 4.1
2014 3.4
2014 4.2
2014 3.4
2014 4.4
2014 3.8
2014 3.4
2014 3.3
2014 5.2
2014 6.0
2014 3.6
2014 4.3
2014 3.8
2014 3.8
2014 3.5
2014 3.6
2014 3.6
2014 4.0
2014 4.2
2014 4.3
2014 3.6
2014 4.4
2014 3.9
2014 3.5
2014 3.6
2014 4.0
2014 4.1
2014 4.3
2014 4.0
2014 3.5
2014 3.8
2014 3.5
2014 3.0
2014 3.2
2014 3.5
2014 3.8
2014 4.7
2014 3.7
2014 3.4
2014 3.4
2014 3.5
2014 4.2
2014 3.9
2014 3.3
2014 3.3
2014 3.4
2014 3.6
2014 3.5
2014 3.6
2013 3.5
2013 3.6
2013 3.5
2013 3.7
2013 4.0
2013 3.5
2013 4.7
2013 3.7
2013 4.0
2013 4.3
2013 3.4
2013 3.8
2013 3.2
2013 4.6
2013 3.6
2013 4.9
2013 4.1
2013 3.7
2013 3.8
2013 3.5
2013 3.5
2013 3.7
2013 3.6
2013 3.9
2013 3.8
2013 4.1
2013 4.9
2013 3.5
2013 3.0
2013 3.0
2013 3.4
2013 3.7
2013 3.6
2013 3.5
2013 4.3
2013 4.7
2013 4.1
2013 4.1
2013 5.0
2013 4.5
2013 3.5
2013 3.2
2013 3.8
2013 3.5
2013 3.6
2013 3.9
2013 3.5
2013 4.7
2013 3.2
2013 4.5
2013 3.8
2013 3.6
2013 3.0
2013 3.8
2013 4.0
2013 3.5
2013 3.6
2013 3.5
2013 3.7
2013 3.6
2013 3.0
2013 3.2
2013 3.7
2013 3.7
2013 4.2
2013 3.2
2013 3.3
2013 3.1
2013 3.7
2013 3.6
2013 3.1
2013 5.0
2013 3.3
2013 4.0
2013 3.3
2013 3.5
2013 3.6
2013 4.2
2013 3.7
2013 4.1
2013 3.8
2013 3.4
2013 3.7
2013 3.4
2013 3.7
2013 3.7
2013 3.7
2013 3.3
2013 3.7
2013 4.5
2013 3.1
2013 3.6
2013 3.5
2013 3.0
2013 3.3
2013 3.8
2013 5.0
2013 3.6
2013 3.4
2013 3.5
2013 4.7
2013 3.2
2012 4.3
2012 4.2
2012 3.4
2012 3.6
2012 3.6
2012 4.7
2012 3.2
2012 3.6
2012 4.8
2012 4.5
2012 3.4
2012 3.4
2012 3.5
2012 3.6
2012 4.2
2012 3.2
2012 3.5
2012 3.2
2012 3.1
2012 3.0
2012 3.2
2012 4.6
2012 3.8
2012 3.6
2012 4.5
2012 3.3
2012 3.7
2012 3.9
2012 4.6
2012 4.4
2012 4.0
2012 5.0
2012 3.3
2012 4.2
2012 3.8
2012 4.7
2012 4.2
2012 4.5
2012 3.7
2012 4.4
2012 4.5
2012 4.6
2012 4.3
2012 5.0
2012 3.3
2012 4.1
2012 4.9
2012 4.3
2012 3.5
2012 3.5
2012 3.2
2012 3.7
2012 3.5
2012 4.5
2012 3.8
2012 4.8
2012 3.3
2012 3.4
2012 4.3
2012 4.3
2012 3.9
2012 3.9
2012 3.0
2012 3.1
2012 3.6
2012 3.2
2012 3.8
2012 3.6
2012 5.0
2012 4.3
2012 3.8
2012 3.1
2012 4.6
2012 4.4
2012 3.7
2012 3.7
2012 3.7
2012 3.7
2012 3.5
2012 3.5
2012 3.4
2012 3.7
2012 3.2
2012 4.0
2012 3.4
2012 3.5
2012 3.5
2012 3.6
2012 3.6
2012 3.3
2011 4.3
2011 4.6
2011 3.8
2011 4.0
2011 3.7
2011 3.7
2011 3.9
2011 4.2
2011 3.9
2011 3.9
2011 3.3
2011 3.5
2011 3.5
2011 3.8
2011 3.4
2011 3.6
2011 3.4
2011 4.5
2011 3.0
2011 3.4
2011 3.4
2011 3.4
2011 3.6
2011 3.8
2011 3.8
2011 3.5
2011 3.4
2011 3.8
2011 4.8
2011 3.0
2011 3.8
2011 3.1
2011 3.3
2011 3.2
2011 3.0
2011 3.4
2011 3.2
2011 3.3
2011 3.5
2011 3.3
2011 3.9
2011 4.6
2011 4.0
2011 3.8
2011 3.3
2011 3.2
2011 3.5
2011 4.7
2011 3.5
2011 3.4
2011 4.8
2011 6.9
2011 3.7
2011 3.9
2011 3.9
2011 4.0
2011 4.0
2011 4.2
2011 3.7
2011 3.5
2011 3.7
2011 3.3
2011 3.0
2011 3.4
2011 3.7
2011 4.0
2011 3.7
2011 3.4
2011 5.0
2011 3.5
2011 3.4
2011 4.0
2011 3.6
2011 3.8
2011 3.6
2011 3.5
2011 3.7
2011 3.4
2011 3.5
2011 3.3
2011 3.9
2011 3.6
2011 3.4
2011 3.6
2011 5.4
2011 4.0
2011 3.9
2011 3.4
2011 4.0
2011 3.6
2011 3.6
2011 3.2
2011 3.6
2011 3.6
2011 4.5
2011 4.0
2011 3.9
2011 3.7
2011 3.5
2011 3.6
2011 3.3
2011 3.5
2011 3.2
2011 3.4
2011 3.5
2011 3.4
2010 3.3
2010 3.1
2010 3.5
2010 4.5
2010 3.7
2010 3.2
2010 3.5
2010 3.6
2010 3.8
2010 3.5
2010 3.5
2010 3.9
2010 3.4
2010 5.3
2010 4.0
2010 3.7
2010 3.6
2010 4.0
2010 4.9
2010 3.9
2010 3.5
2010 3.2
2010 3.7
2010 4.5
2010 3.8
2010 3.4
2010 3.5
2010 3.6
2010 3.9
2010 3.5
2010 4.5
2010 4.6
2010 5.0
2010 4.7
2010 5.2
2010 3.2
2010 4.6
2010 4.7
2010 3.8
2010 3.5
2010 3.6
2010 3.8
2010 3.4
2010 4.9
2010 3.7
2010 3.6
2010 3.2
2010 3.4
2010 3.6
2010 3.7
2010 3.8
2010 3.8
2010 3.8
2010 3.1
2010 3.4
2010 3.7
2010 4.0
2010 3.6
2010 3.9
2010 5.1
2010 3.2
2010 3.7
2010 4.3
2010 3.1
2010 4.6
2010 3.4
2010 3.3
2010 3.6
2010 3.6
2010 3.9
2010 3.7
2010 4.7
2010 3.5
2009 5.5
2009 3.4
2009 4.3
2009 3.9
2009 3.3
2009 4.2
2009 4.4
2009 3.7
2009 4.0
2009 3.7
2009 4.5
2009 3.5
2009 4.1
2009 5.5
2009 3.4
2009 3.9
2009 3.3
2009 4.4
2009 4.8
2009 3.6
2009 5.1
2009 3.9
2009 3.7
2009 3.3
2009 3.4
2009 3.7
2009 4.0
2009 3.7
2009 4.1
2009 3.5
2009 4.5
2009 6.1
2009 3.9
2009 3.9
2009 3.8
2009 3.5
2009 3.2
2009 3.4
2009 3.4
2009 3.8
2009 3.3
2009 3.7
2009 3.3
2009 3.4
2009 3.7
2009 3.9
2009 3.6
2009 3.9
2009 3.4
2009 3.7
2009 3.6
2009 4.4
2009 4.4
2009 3.9
2009 3.7
2009 3.6
2009 3.7
2009 3.5
2009 3.3
2009 3.9
2009 4.7
2009 3.1
2009 3.5
2009 4.0
2009 4.2
2009 3.3
2009 3.6
2009 4.2
2009 3.9
2009 3.8
2009 3.4
2009 4.1
2009 3.5
2009 3.3
2009 3.8
2009 3.7
2009 3.4
2009 3.3
